id,attr_time,attr_x,attr_y,attr_z
1,1435996968008,0.5650316,10.180744,0.40462008
2,1435996968028,0.5781997,10.162787,0.41359833
3,1435996968051,0.5410896,10.187328,0.40880993
4,1435996968071,0.49200845,10.211869,0.41240123
5,1435996968088,0.48961425,10.16578,0.37110126
6,1435996968108,0.59256494,10.213664,0.4141969
7,1435996968129,0.5686229,10.26933,0.45789108
8,1435996968149,0.52971715,10.224439,0.427365
9,1435996968169,0.60573304,10.166379,0.38367084
10,1435996968195,0.62009823,10.118495,0.40282443
11,1435996968245,0.5722142,10.155605,0.39145198
12,1435996968246,0.55006784,10.213066,0.3842694
13,1435996968248,0.5327099,10.275315,0.40761283
14,1435996968277,0.5315128,10.247183,0.39923313
15,1435996968304,0.53809685,10.213066,0.4213795
16,1435996968309,0.53091425,10.19092,0.41000703
17,1435996968328,0.5243302,10.19092,0.41000703
18,1435996968349,0.5303157,10.19092,0.41060558
19,1435996968370,0.5201403,10.19451,0.43394905
20,1435996968388,0.49559975,10.1861315,0.41718966
21,1435996968417,0.50876784,10.208876,0.40940848
22,1435996968433,0.51714754,10.19451,0.42078096
23,1435996968452,0.5033809,10.171766,0.43275195
24,1435996968470,0.4938041,10.189124,0.42437226
25,1435996968487,0.50278234,10.205285,0.41838676
26,1435996968509,0.5117606,10.209475,0.39983168
27,1435996968532,0.52732295,10.196306,0.41599256
28,1435996968548,0.58119243,10.196306,0.41479546
29,1435996968569,0.57640404,10.177153,0.42916065
30,1435996968593,0.50996494,10.20289,0.39923313
31,1435996968612,0.46806642,10.187328,0.38367084
32,1435996968632,0.5793968,10.1226845,0.42916065
33,1435996968651,0.6183026,10.228628,0.42796355
34,1435996968673,0.52133745,10.236409,0.4285621
35,1435996968690,0.55006784,10.20289,0.4321534
36,1435996968708,0.57400984,10.144233,0.40342298
37,1435996968729,0.5662287,10.125677,0.39564183
38,1435996968748,0.54887074,10.1382475,0.38606504
39,1435996968770,0.5105635,10.187927,0.39923313
40,1435996968793,0.4782418,10.222643,0.41000703
41,1435996968813,0.5117606,10.222643,0.44592008
42,1435996968829,0.521936,10.220847,0.4405331
43,1435996968849,0.51954174,10.201694,0.44771573
44,1435996968873,0.4985925,10.2178545,0.4369418
45,1435996968891,0.5021838,10.188525,0.46686932
46,1435996968911,0.51235914,10.193314,0.46447513
47,1435996968933,0.46567222,10.216658,0.45190558
48,1435996968952,0.45429978,10.216059,0.46327803
49,1435996968983,0.46746787,10.196905,0.45370123
50,1435996968992,0.45549688,10.207679,0.46088383
51,1435996969026,0.47524905,10.225636,0.4141969
52,1435996969029,0.48123455,10.237008,0.45070848
53,1435996969049,0.4782418,10.220248,0.43993455
54,1435996969069,0.52971715,10.186729,0.40821138
55,1435996969151,0.5303157,10.153211,0.40761283
56,1435996969152,0.54408234,10.1861315,0.4189853
57,1435996969153,0.50996494,10.201095,0.42078096
58,1435996969180,0.42197806,10.214862,0.3824737
59,1435996969181,0.427365,10.192716,0.38307226
60,1435996969211,0.55964464,10.192117,0.45429978
61,1435996969212,0.54527944,10.271724,0.44891283
62,1435996969250,0.47465047,10.220847,0.40043023
63,1435996969251,0.5201403,10.151415,0.39803603
64,1435996969269,0.55365914,10.119094,0.40462008
65,1435996969292,0.4914099,10.125079,0.4165911
66,1435996969309,0.46327803,10.180145,0.38845924
67,1435996969329,0.46267948,10.22384,0.40342298
68,1435996969353,0.4914099,10.248381,0.4417302
69,1435996969369,0.50517654,10.238804,0.4357447
70,1435996969392,0.50637364,10.198102,0.4309563
71,1435996969412,0.50038815,10.170568,0.44113165
72,1435996969432,0.48003745,10.173561,0.45130703
73,1435996969450,0.46267948,10.186729,0.4429273
74,1435996969471,0.43634325,10.192716,0.4201824
75,1435996969493,0.44891283,10.192716,0.4141969
76,1435996969513,0.47225627,10.190321,0.4333505
77,1435996969533,0.49320555,10.198102,0.4177882
78,1435996969551,0.5057751,10.22384,0.4141969
79,1435996969571,0.53689975,10.199898,0.42796355
80,1435996969593,0.5398925,10.209475,0.43155485
81,1435996969609,0.5129577,10.195708,0.40761283
82,1435996969629,0.5231331,10.184934,0.3878607
83,1435996969649,0.5129577,10.147225,0.40162733
84,1435996969669,0.5566519,10.16578,0.40342298
85,1435996969691,0.504578,10.142437,0.34596214
86,1435996969712,0.45669398,10.121488,0.36272156
87,1435996969733,0.5626374,10.14124,0.41359833
88,1435996969750,0.62009823,10.248381,0.3573346
89,1435996969770,0.51834464,10.208278,0.35553896
90,1435996969791,0.53450555,10.135853,0.38965634
91,1435996969814,0.60094464,10.102334,0.39683893
92,1435996969834,0.581791,10.099341,0.38187516
93,1435996969851,0.5650316,10.166379,0.3842694
94,1435996969870,0.6063316,10.241198,0.37469256
95,1435996969891,0.5847838,10.275913,0.40641573
96,1435996969911,0.5931635,10.26933,0.427365
97,1435996969931,0.60812724,10.1861315,0.4369418
98,1435996969955,0.5470751,10.196306,0.4249708
99,1435996969972,0.516549,10.160992,0.40162733
100,1435996969991,0.50278234,10.160992,0.42676646
101,1435996970016,0.51235914,10.180744,0.4285621
102,1435996970086,0.52732295,10.1939125,0.40701428
103,1435996970087,0.516549,10.20289,0.4201824
104,1435996970088,0.52492875,10.192716,0.41718966
105,1435996970114,0.5315128,10.175357,0.40521863
106,1435996970115,0.57281274,10.185533,0.43035775
107,1435996970132,0.55365914,10.192716,0.427365
108,1435996970159,0.5351041,10.196306,0.44232875
109,1435996970172,0.52852005,10.183139,0.40521863
110,1435996970192,0.55964464,10.176555,0.41060558
111,1435996970211,0.5805939,10.1699705,0.39983168
112,1435996970233,0.6242881,10.184934,0.4225766
113,1435996970257,0.5374983,10.222643,0.40462008
114,1435996970271,0.4997896,10.213066,0.40940848
115,1435996970290,0.5823896,10.199299,0.4201824
116,1435996970317,0.57281274,10.281301,0.44472298
117,1435996970331,0.4794389,10.214862,0.4201824
118,1435996970361,0.52492875,10.161591,0.3597288
119,1435996970376,0.5793968,10.149021,0.39085343
120,1435996970396,0.56682724,10.133459,0.39624038
121,1435996970411,0.5530606,10.196306,0.36990416
122,1435996970432,0.54767364,10.227431,0.41838676
123,1435996970451,0.5410896,10.231621,0.44232875
124,1435996970474,0.51355624,10.210073,0.46327803
125,1435996970552,0.49081135,10.177153,0.4261679
126,1435996970553,0.48482585,10.199898,0.427365
127,1435996970554,0.49081135,10.199898,0.44113165
128,1435996970555,0.521936,10.202292,0.45250413
129,1435996970680,0.50876784,10.198102,0.46686932
130,1435996970681,0.48961425,10.210073,0.4429273
131,1435996970682,0.46267948,10.196905,0.44472298
132,1435996970683,0.44711718,10.206482,0.44232875
133,1435996970684,0.4369418,10.197504,0.4285621
134,1435996970685,0.45789108,10.208278,0.46028528
135,1435996970693,0.4866215,10.204686,0.43035775
136,1435996970714,0.4842273,10.213066,0.41180268
137,1435996970731,0.4973954,10.187927,0.40043023
138,1435996970751,0.52253455,10.184336,0.41359833
139,1435996970771,0.56203884,10.174759,0.4177882
140,1435996970791,0.49919105,10.2178545,0.41000703
141,1435996970811,0.427365,10.216658,0.37469256
142,1435996970831,0.53211135,10.185533,0.39384618
143,1435996970851,0.581791,10.206482,0.4357447
144,1435996970871,0.5686229,10.244789,0.44651863
145,1435996970892,0.49440265,10.207081,0.45729253
146,1435996970912,0.51116204,10.148422,0.40521863
147,1435996970932,0.5201403,10.127473,0.39803603
148,1435996970954,0.5141548,10.1382475,0.38965634
149,1435996970972,0.50397944,10.197504,0.37469256
150,1435996970990,0.4997896,10.220847,0.39683893
151,1435996971012,0.50397944,10.248979,0.42437226
152,1435996971031,0.5374983,10.239402,0.4321534
153,1435996971051,0.516549,10.21546,0.44592008
154,1435996971070,0.521936,10.206482,0.45070848
155,1435996971091,0.5021838,10.163386,0.4309563
156,1435996971113,0.5105635,10.19092,0.47465047
157,1435996971130,0.46986207,10.193314,0.45310268
158,1435996971152,0.46986207,10.205883,0.4429273
159,1435996971171,0.46148238,10.181941,0.44771573
160,1435996971191,0.45729253,10.174759,0.4309563
161,1435996971212,0.45729253,10.191518,0.4165911
162,1435996971234,0.4842273,10.200497,0.44352585
163,1435996971252,0.504578,10.234613,0.43873745
164,1435996971271,0.5231331,10.250176,0.42078096
165,1435996971294,0.533907,10.196306,0.41299978
166,1435996971311,0.56563014,10.196905,0.43993455
167,1435996971335,0.5518635,10.195708,0.44352585
168,1435996971355,0.49440265,10.208278,0.39923313
169,1435996971372,0.44532153,10.190321,0.3549404
170,1435996971392,0.54288524,10.163984,0.42916065
171,1435996971413,0.60333884,10.253169,0.43634325
172,1435996971438,0.5153519,10.2735195,0.427365
173,1435996971451,0.516549,10.193314,0.39085343
174,1435996971472,0.54408234,10.144233,0.38367084
175,1435996971494,0.5470751,10.1304655,0.4189853
176,1435996971511,0.5129577,10.169372,0.3752911
177,1435996971534,0.5069722,10.199299,0.37948096
178,1435996971552,0.47764325,10.225037,0.41000703
179,1435996971572,0.46686932,10.231023,0.44951138
180,1435996971591,0.49200845,10.1939125,0.44352585
181,1435996971615,0.47405192,10.191518,0.43035775
182,1435996971634,0.46327803,10.190321,0.4201824
183,1435996971652,0.45310268,10.166379,0.43035775
184,1435996971671,0.44951138,10.186729,0.4321534
185,1435996971695,0.46267948,10.204686,0.4369418
186,1435996971713,0.47165772,10.205285,0.4309563
187,1435996971736,0.4782418,10.20289,0.41180268
188,1435996971756,0.48362875,10.192117,0.39803603
189,1435996971771,0.4890157,10.156203,0.4345476
190,1435996971794,0.49440265,10.179547,0.41000703
191,1435996971813,0.47524905,10.180145,0.40581718
192,1435996971832,0.45429978,10.206482,0.3669114
193,1435996971866,0.4758476,10.167576,0.3824737
194,1435996971873,0.54767364,10.179547,0.39444473
195,1435996971900,0.55725044,10.188525,0.3693056
196,1435996971911,0.46387658,10.13705,0.33039984
197,1435996971933,0.5530606,10.126276,0.36990416
198,1435996971953,0.6374562,10.19451,0.42676646
199,1435996971973,0.53450555,10.278308,0.41180268
200,1435996971993,0.516549,10.1861315,0.37110126
201,1435996972013,0.57281274,10.132261,0.3645172
202,1435996972036,0.58657944,10.120889,0.37828386
203,1435996972056,0.5793968,10.138845,0.37229836
204,1435996972072,0.55725044,10.199299,0.39504328
205,1435996972092,0.5279215,10.247782,0.39803603
206,1435996972113,0.49679685,10.251971,0.41180268
207,1435996972133,0.48722005,10.234015,0.41120413
208,1435996972152,0.49320555,10.21965,0.38965634
209,1435996972172,0.51834464,10.21546,0.415394
210,1435996972198,0.5530606,10.165182,0.4369418
211,1435996972216,0.5746084,10.187927,0.43754035
212,1435996972236,0.56203884,10.201694,0.40521863
213,1435996972255,0.53330845,10.21546,0.41120413
214,1435996972278,0.5057751,10.211869,0.40701428
215,1435996972329,0.48841715,10.212467,0.4165911
216,1435996972330,0.480636,10.181343,0.39444473
217,1435996972344,0.50996494,10.20289,0.42197806
218,1435996972373,0.53450555,10.205883,0.427365
219,1435996972374,0.533907,10.214862,0.41240123
220,1435996972392,0.5518635,10.161591,0.4141969
221,1435996972418,0.57760113,10.181941,0.37828386
222,1435996972434,0.52971715,10.1939125,0.4141969
223,1435996972453,0.4357447,10.201694,0.40701428
224,1435996972474,0.45908818,10.177752,0.3716998
225,1435996972500,0.6075287,10.196905,0.41838676
226,1435996972516,0.56682724,10.281899,0.43634325
227,1435996972532,0.5291186,10.248979,0.4441244
228,1435996972553,0.5805939,10.156802,0.3890578
229,1435996972579,0.5847838,10.125677,0.39683893
230,1435996972594,0.545878,10.13286,0.3824737
231,1435996972612,0.5129577,10.175956,0.38067806
232,1435996972632,0.50038815,10.238804,0.39504328
233,1435996972653,0.4973954,10.256162,0.4237737
234,1435996972679,0.52073884,10.220847,0.43514615
235,1435996972694,0.52373165,10.206482,0.43634325
236,1435996972715,0.5291186,10.200497,0.43394905
237,1435996972734,0.5057751,10.170568,0.4261679
238,1435996972757,0.48841715,10.175956,0.44472298
239,1435996972806,0.45789108,10.184934,0.40641573
240,1435996972807,0.4441244,10.208278,0.4297592
241,1435996972822,0.45250413,10.208278,0.44352585
242,1435996972839,0.480636,10.185533,0.43873745
243,1435996972853,0.48602295,10.177752,0.41599256
244,1435996972873,0.5117606,10.209475,0.4261679
245,1435996972897,0.50158525,10.180744,0.4297592
246,1435996972915,0.50158525,10.183139,0.39923313
247,1435996972935,0.5422867,10.206482,0.415394
248,1435996972956,0.5518635,10.197504,0.415394
249,1435996972974,0.53450555,10.203489,0.41359833
250,1435996972997,0.4441244,10.207679,0.40462008
251,1435996973015,0.46088383,10.168175,0.3752911
252,1435996973033,0.62967503,10.175357,0.44592008
253,1435996973053,0.59017074,10.269928,0.4381389
254,1435996973075,0.4854244,10.247183,0.41838676
255,1435996973099,0.5177461,10.177752,0.40641573
256,1435996973115,0.5422867,10.1621895,0.39923313
257,1435996973136,0.50996494,10.160992,0.39983168
258,1435996973153,0.5021838,10.199898,0.39384618
259,1435996973174,0.50038815,10.225037,0.4165911
260,1435996973194,0.49559975,10.241198,0.43155485
261,1435996973214,0.50757074,10.213066,0.4429273
262,1435996973244,0.504578,10.19451,0.44532153
263,1435996973255,0.49799395,10.199898,0.4357447
264,1435996973300,0.4866215,10.201694,0.45549688
265,1435996973301,0.492607,10.184934,0.4441244
266,1435996973313,0.45848963,10.187927,0.39384618
267,1435996973333,0.46028528,10.197504,0.40222588
268,1435996973360,0.45908818,10.189124,0.4405331
269,1435996973376,0.4878186,10.191518,0.43394905
270,1435996973393,0.49799395,10.195109,0.4249708
271,1435996973419,0.5093664,10.198701,0.415394
272,1435996973438,0.4878186,10.19451,0.41958386
273,1435996973455,0.480636,10.197504,0.39264908
274,1435996973475,0.492607,10.187927,0.40462008
275,1435996973507,0.5327099,10.210073,0.38845924
276,1435996973513,0.51116204,10.192117,0.3842694
277,1435996973537,0.43993455,10.161591,0.3681085
278,1435996973555,0.56323594,10.155605,0.39803603
279,1435996973574,0.61171854,10.263943,0.4213795
280,1435996973598,0.5177461,10.305841,0.40701428
281,1435996973618,0.5117606,10.183139,0.3866636
282,1435996973638,0.58777654,10.157401,0.3788824
283,1435996973658,0.59735334,10.126875,0.3752911
284,1435996973675,0.5626374,10.104729,0.3609259
285,1435996973694,0.55605334,10.134656,0.35434186
286,1435996973715,0.5746084,10.196306,0.36990416
287,1435996973733,0.54288524,10.229227,0.40402153
288,1435996973753,0.54527944,10.21127,0.4177882
289,1435996973784,0.5009867,10.171766,0.3788824
290,1435996973798,0.45669398,10.152613,0.37828386
291,1435996973814,0.48722005,10.153211,0.40102878
292,1435996973834,0.5374983,10.167576,0.4213795
293,1435996973854,0.56802434,10.200497,0.40761283
294,1435996973874,0.5662287,10.198701,0.40761283
295,1435996973896,0.5470751,10.183737,0.41599256
296,1435996973914,0.5279215,10.17835,0.39264908
297,1435996973934,0.50637364,10.183737,0.39205053
298,1435996973954,0.49559975,10.17835,0.39504328
299,1435996973977,0.48841715,10.205883,0.38965634
300,1435996974000,0.52373165,10.181343,0.37828386
301,1435996974017,0.59017074,10.181343,0.4141969
302,1435996974037,0.60573304,10.17416,0.36870706
303,1435996974057,0.5129577,10.168773,0.36511576
304,1435996974078,0.5291186,10.197504,0.35075054
305,1435996974097,0.65900403,10.193314,0.4237737
306,1435996974117,0.6326678,10.307637,0.45729253
307,1435996974138,0.54527944,10.245388,0.39264908
308,1435996974158,0.5734113,10.174759,0.34835634
309,1435996974178,0.65421563,10.134057,0.37110126
310,1435996974198,0.6206968,10.129269,0.36391866
311,1435996974217,0.5835867,10.171167,0.3681085
312,1435996974276,0.545878,10.199898,0.41000703
313,1435996974285,0.49440265,10.225636,0.4225766
314,1435996974286,0.47524905,10.206482,0.415394
315,1435996974315,0.47285482,10.204087,0.40641573
316,1435996974316,0.4961983,10.217256,0.41718966
317,1435996974334,0.52253455,10.210073,0.43993455
318,1435996974421,0.53689975,10.199898,0.4321534
319,1435996974422,0.55246204,10.187927,0.45549688
320,1435996974431,0.5351041,10.22384,0.44951138
321,1435996974434,0.492607,10.199299,0.41958386
322,1435996974435,0.45789108,10.197504,0.42676646
323,1435996974463,0.44711718,10.185533,0.41838676
324,1435996974475,0.46627077,10.199299,0.43035775
325,1435996974495,0.49559975,10.207081,0.4201824
326,1435996974517,0.51116204,10.207679,0.43035775
327,1435996974537,0.5434838,10.180145,0.40880993
328,1435996974555,0.55844754,10.181343,0.40102878
329,1435996974575,0.52253455,10.196905,0.40581718
330,1435996974598,0.46806642,10.205883,0.3728969
331,1435996974618,0.55725044,10.160394,0.38067806
332,1435996974638,0.6368576,10.235811,0.42317516
333,1435996974658,0.5386954,10.2735195,0.42796355
334,1435996974677,0.55485624,10.195708,0.41120413
335,1435996974696,0.6063316,10.151415,0.39444473
336,1435996974716,0.5835867,10.121488,0.35314476
337,1435996974738,0.53330845,10.156802,0.36511576
338,1435996974757,0.48841715,10.213664,0.36631286
339,1435996974805,0.5021838,10.218452,0.41599256
340,1435996974806,0.54168814,10.235212,0.4381389
341,1435996974815,0.521936,10.212467,0.46387658
342,1435996974838,0.5177461,10.213664,0.43394905
343,1435996974855,0.51116204,10.211869,0.41958386
344,1435996974877,0.48362875,10.166379,0.44352585
345,1435996974895,0.49320555,10.172963,0.43394905
346,1435996974921,0.47524905,10.195109,0.41958386
347,1435996974938,0.46567222,10.210073,0.4141969
348,1435996974957,0.46686932,10.192117,0.44711718
349,1435996974977,0.47285482,10.18254,0.4405331
350,1435996974998,0.49081135,10.189722,0.4441244
351,1435996975015,0.4985925,10.198701,0.415394
352,1435996975037,0.54408234,10.197504,0.41180268
353,1435996975055,0.55605334,10.187328,0.41958386
354,1435996975075,0.5835867,10.201694,0.40940848
355,1435996975100,0.5602432,10.187328,0.41479546
356,1435996975120,0.46507367,10.176555,0.39324763
357,1435996975140,0.48961425,10.156802,0.36032736
358,1435996975158,0.6434417,10.188525,0.48243165
359,1435996975175,0.60573304,10.272921,0.46866497
360,1435996975195,0.50876784,10.242993,0.44651863
361,1435996975217,0.5374983,10.185533,0.44352585
362,1435996975238,0.53450555,10.139444,0.47165772
363,1435996975255,0.516549,10.13705,0.427365
364,1435996975313,0.492607,10.170568,0.43035775
365,1435996975329,0.4770447,10.149021,0.44472298
366,1435996975330,0.4345476,10.168773,0.47764325
367,1435996975360,0.46806642,10.155006,0.48482585
368,1435996975361,0.48482585,10.16578,0.49679685
369,1435996975377,0.51834464,10.209475,0.46746787
370,1435996975407,0.5626374,10.192117,0.4866215
371,1435996975415,0.57999533,10.1382475,0.54049104
372,1435996975439,0.57281274,10.064626,0.5303157
373,1435996975460,0.5255273,10.037092,0.46926352
374,1435996975478,0.4842273,10.015544,0.4249708
375,1435996975496,0.46686932,10.068815,0.39564183
376,1435996975515,0.53689975,10.116699,0.36511576
377,1435996975535,0.66379243,10.152613,0.3693056
378,1435996975558,0.7715315,10.151415,0.3633201
379,1435996975575,0.7410054,10.080188,0.40282443
380,1435996975601,0.56682724,10.394426,0.33518824
381,1435996975621,0.49200845,10.548853,0.3238158
382,1435996975639,0.5033809,10.358514,0.504578
383,1435996975659,0.43035775,10.0903635,0.44352585
384,1435996975678,0.30166942,9.986216,0.33399114
385,1435996975695,0.11252748,10.1065235,0.3345897
386,1435996975716,0.06404489,10.172364,0.32621
387,1435996975738,0.1400608,10.173561,0.26515785
388,1435996975756,0.18016368,10.175357,0.19512744
389,1435996975841,0.16699557,10.138845,0.15622166
390,1435996975842,0.05805939,10.141838,0.1340753
391,1435996975843,-0.017357962,10.234015,0.08140286
392,1435996975844,-0.04070143,10.291476,-0.046686932
393,1435996975899,-0.049081136,10.259753,-0.107739076
394,1435996975900,-0.094570965,10.426748,-0.088585466
395,1435996975901,-0.219668,10.670359,-0.11252748
396,1435996975936,-0.3184288,10.806828,0.035314474
397,1435996975937,-0.350152,10.763732,0.24899697
398,1435996975956,-0.31423897,10.631453,0.3537433
399,1435996975978,-0.3645172,10.458471,0.3333926
400,1435996975996,-0.39504328,10.307637,0.2789245
401,1435996976016,-0.41718966,10.234015,0.22744916
402,1435996976036,-0.38845924,10.168773,0.35793316
403,1435996976056,-0.3549404,9.989806,0.56084174
404,1435996976076,-0.3309984,9.855731,0.7009025
405,1435996976096,-0.40222588,9.848549,0.80086046
406,1435996976116,-0.54408234,9.791088,0.55964464
407,1435996976136,-0.75118077,9.651027,0.39803603
408,1435996976156,-0.7846996,9.48882,0.3357868
