id,attr_time,attr_x,attr_y,attr_z
1,1435995489003,-1.5053543,9.486425,0.623091
2,1435995489024,-1.3521254,9.406818,0.64942724
3,1435995489043,-1.4041992,9.419987,0.7218518
4,1435995489063,-1.472434,9.4696665,0.6254852
5,1435995489085,-1.4101849,9.442732,0.5650316
6,1435995489103,-1.3802572,9.459491,0.53809685
7,1435995489123,-1.3796587,9.482236,0.54408234
8,1435995489149,-1.3892355,9.498995,0.51116204
9,1435995489163,-1.3958195,9.515755,0.50757074
10,1435995489183,-1.3557167,9.53012,0.58538234
11,1435995489206,-1.3036429,9.51336,0.59974754
12,1435995489223,-1.311424,9.5253315,0.6278794
13,1435995489243,-1.311424,9.548077,0.6476316
14,1435995489265,-1.359308,9.527127,0.65541273
15,1435995489283,-1.4544775,9.509769,0.5919664
16,1435995489303,-1.5717934,9.553463,0.59735334
17,1435995489325,-1.5735891,9.6049385,0.51116204
18,1435995489349,-1.5292963,9.660604,0.4770447
19,1435995489366,-1.4628572,9.656414,0.52373165
20,1435995489388,-1.42455,9.638457,0.54049104
21,1435995489403,-1.3958195,9.63726,0.59256494
22,1435995489423,-1.4047978,9.633669,0.6242881
23,1435995489445,-1.3718776,9.624092,0.59974754
24,1435995489463,-1.3563153,9.613917,0.5883751
25,1435995489483,-1.3551182,9.572019,0.587178
26,1435995489505,-1.400608,9.554062,0.60573304
27,1435995489523,-1.4520833,9.524135,0.6434417
28,1435995489543,-1.496376,9.540296,0.664391
29,1435995489565,-1.5053543,9.564836,0.5979519
30,1435995489583,-1.5107412,9.584588,0.59136784
31,1435995489604,-1.4891934,9.589376,0.59017074
32,1435995489625,-1.4682442,9.5492735,0.60333884
33,1435995489643,-1.4514848,9.524135,0.59615624
34,1435995489663,-1.4676456,9.564238,0.66379243
35,1435995489685,-1.4975731,9.545084,0.52612585
36,1435995489704,-1.4939818,9.519346,0.59376204
37,1435995489723,-1.4688427,9.548077,0.66259533
38,1435995489745,-1.4933833,9.592369,0.6691794
39,1435995489763,-1.4957775,9.59177,0.58418524
40,1435995489783,-1.4556746,9.537901,0.533907
41,1435995489805,-1.4221559,9.545084,0.53211135
42,1435995489823,-1.3611037,9.546281,0.58777654
43,1435995489843,-1.3676877,9.536105,0.61112
44,1435995489865,-1.4131776,9.535507,0.6063316
45,1435995489883,-1.3814543,9.545682,0.60573304
46,1435995489906,-1.3808558,9.518747,0.62967503
47,1435995489932,-1.3742718,9.558251,0.65660983
48,1435995489943,-1.352724,9.565434,0.64823014
49,1435995489963,-1.3377602,9.578603,0.65541273
50,1435995489985,-1.335366,9.587581,0.6596026
51,1435995490003,-1.3431472,9.595362,0.66259533
52,1435995490023,-1.3120226,9.625888,0.62608373
53,1435995490046,-1.3293805,9.64564,0.59735334
54,1435995490064,-1.34195,9.619304,0.62009823
55,1435995490084,-1.3341689,9.644443,0.5734113
56,1435995490105,-1.3371617,9.61272,0.55365914
57,1435995490123,-1.2916719,9.625289,0.5530606
58,1435995490144,-1.2677298,9.5798,0.5530606
59,1435995490166,-1.2401965,9.576807,0.5943606
60,1435995490184,-1.2551602,9.595362,0.5554548
61,1435995490203,-1.2443863,9.612122,0.5770026
62,1435995490225,-1.2401965,9.617508,0.58298814
63,1435995490243,-1.2198458,9.622895,0.5781997
64,1435995490264,-1.2294226,9.60853,0.5823896
65,1435995490287,-1.2683283,9.604341,0.5919664
66,1435995490303,-1.2862848,9.607931,0.5470751
67,1435995490324,-1.2802993,9.57561,0.5883751
68,1435995490346,-1.2545617,9.589975,0.60812724
69,1435995490364,-1.2749124,9.60853,0.55725044
70,1435995490386,-1.316811,9.658808,0.60333884
71,1435995490406,-1.2814964,9.664195,0.43035775
72,1435995490424,-1.2294226,9.58818,0.4794389
73,1435995490444,-1.1994951,9.589975,0.55485624
74,1435995490466,-1.2563573,9.619304,0.6183026
75,1435995490484,-1.287482,9.552266,0.55246204
76,1435995490504,-1.2659341,9.516952,0.44891283
77,1435995490526,-1.2312182,9.516354,0.46806642
78,1435995490544,-1.2078748,9.557653,0.48961425
79,1435995490564,-1.1971009,9.579201,0.5009867
80,1435995490586,-1.18094,9.59177,0.47405192
81,1435995490604,-1.1845313,9.564238,0.50397944
82,1435995490624,-1.2084733,9.544485,0.55006784
83,1435995490646,-1.2258313,9.568427,0.5602432
84,1435995490664,-1.2491747,9.601946,0.5231331
85,1435995490684,-1.2569559,9.583391,0.51834464
86,1435995490712,-1.2384008,9.576807,0.5141548
87,1435995490724,-1.2306197,9.585785,0.59974754
88,1435995490744,-1.2108675,9.570822,0.55006784
89,1435995490768,-1.2318168,9.577405,0.5327099
90,1435995490785,-1.2455834,9.624691,0.54049104
91,1435995490804,-1.2216414,9.61691,0.56922144
92,1435995490826,-1.2240356,9.629479,0.59017074
93,1435995490844,-1.2437878,9.618107,0.59615624
94,1435995490864,-1.2785037,9.601347,0.5847838
95,1435995490886,-1.2856863,9.582792,0.59136784
96,1435995490905,-1.2982559,9.55885,0.545878
97,1435995490924,-1.2958617,9.558251,0.5255273
98,1435995490946,-1.2785037,9.553463,0.51954174
99,1435995490964,-1.2755109,9.590573,0.5422867
100,1435995490985,-1.2623428,9.610924,0.5638345
101,1435995491008,-1.2485762,9.656414,0.545878
102,1435995491030,-1.2605472,9.639654,0.53809685
103,1435995491047,-1.2449849,9.605537,0.54887074
104,1435995491068,-1.2294226,9.5798,0.55725044
105,1435995491087,-1.2132617,9.57142,0.5434838
106,1435995491105,-1.2389994,9.607333,0.57879823
107,1435995491126,-1.2695254,9.630077,0.50397944
108,1435995491146,-1.2689269,9.616311,0.48482585
109,1435995491165,-1.2192472,9.554661,0.55485624
110,1435995491187,-1.2521675,9.623494,0.59615624
111,1435995491209,-1.3036429,9.635465,0.59256494
112,1435995491225,-1.252766,9.569026,0.46148238
113,1435995491247,-1.2240356,9.570822,0.46327803
114,1435995491267,-1.174356,9.593566,0.5482722
115,1435995491285,-1.1869255,9.606135,0.55246204
116,1435995491307,-1.2084733,9.598354,0.5291186
117,1435995491325,-1.2060791,9.605537,0.5117606
118,1435995491345,-1.204882,9.601347,0.5482722
119,1435995491368,-1.1899183,9.586982,0.5422867
120,1435995491385,-1.2060791,9.602545,0.53809685
121,1435995491419,-1.2270284,9.625888,0.52253455
122,1435995491427,-1.2354081,9.626487,0.4854244
123,1435995491445,-1.2665327,9.636662,0.5470751
124,1435995491467,-1.2384008,9.610326,0.51954174
125,1435995491487,-1.240795,9.61691,0.53570265
126,1435995491505,-1.2366052,9.599552,0.53809685
127,1435995491525,-1.2737153,9.576208,0.5189432
128,1435995491547,-1.2958617,9.587581,0.5506664
129,1435995491566,-1.3269863,9.586384,0.5554548
130,1435995491585,-1.3078327,9.592369,0.52373165
131,1435995491608,-1.3215994,9.572019,0.54647654
132,1435995491627,-1.3227965,9.574412,0.5351041
133,1435995491645,-1.3281834,9.566631,0.52852005
134,1435995491667,-1.3413515,9.564238,0.53211135
135,1435995491685,-1.3371617,9.594165,0.52852005
136,1435995491707,-1.3521254,9.587581,0.53211135
137,1435995491727,-1.3485341,9.586384,0.55126494
138,1435995491746,-1.3730747,9.6049385,0.5327099
139,1435995491765,-1.388637,9.6049385,0.52852005
140,1435995491787,-1.3934253,9.612122,0.5710171
141,1435995491805,-1.3718776,9.591172,0.5518635
142,1435995491825,-1.3700819,9.554062,0.54288524
143,1435995491849,-1.388637,9.5570545,0.587178
144,1435995491866,-1.4736311,9.575011,0.5614403
145,1435995491886,-1.5376761,9.573814,0.52732295
146,1435995491907,-1.4862007,9.454104,0.62847793
147,1435995491925,-1.4646529,9.348161,0.59256494
148,1435995491945,-1.5340848,9.196728,0.50517654
149,1435995491967,-1.596334,9.324219,0.48123455
150,1435995491985,-1.666963,9.61272,0.6159084
151,1435995492005,-1.7878702,9.882068,0.81642276
152,1435995492027,-1.9764135,10.044274,1.0073603
153,1435995492045,-2.1481974,9.992201,1.1330559
154,1435995492065,-2.2068555,9.657013,1.264737
155,1435995492087,-2.15957,9.279925,1.3275849
156,1435995492105,-2.119467,8.921992,1.2856863
157,1435995492125,-2.047641,8.743026,1.1713632
158,1435995492151,-1.7022774,8.659827,1.2497733
159,1435995492166,-1.3874398,8.640674,1.2060791
160,1435995492186,-1.1133038,8.683171,1.3431472
161,1435995492216,-0.9103952,8.963293,1.5526398
162,1435995492225,-0.9528923,9.428367,1.9087774
163,1435995492247,-1.2904748,9.923966,2.2050598
164,1435995492276,-1.7316064,10.240001,1.9883845
165,1435995492286,-2.0260932,10.104729,1.4891934
166,1435995492306,-2.094328,9.789292,1.2150574
167,1435995492328,-2.0805612,9.445126,1.2605472
168,1435995492347,-2.0278888,9.11712,1.5298948
169,1435995492365,-1.9273324,8.854357,1.6873137
170,1435995492388,-2.0757728,8.8328085,1.6226702
171,1435995492406,-2.0446482,8.892065,1.6011224
172,1435995492426,-1.8058267,8.972271,1.3221979
173,1435995492449,-1.4640543,9.201516,0.95827925
174,1435995492466,-1.0516531,9.347562,0.99778354
175,1435995492487,-0.75596917,9.595961,1.1827357
176,1435995492509,-0.62009823,9.910199,1.2695254
177,1435995492526,-0.79367787,10.164583,1.210269
178,1435995492546,-1.0905589,9.891046,1.4850036
179,1435995492569,-0.9223662,9.709685,1.3509283
180,1435995492587,-0.8738836,9.612122,1.1127052
181,1435995492607,-0.55605334,9.189545,0.9487024
182,1435995492629,-0.31663316,8.77834,0.5117606
183,1435995492646,-0.13826515,8.301296,0.3573346
184,1435995492667,-0.41599256,7.946954,0.64583594
185,1435995492689,-0.8170213,7.7787614,0.60812724
186,1435995492707,-1.3946224,8.2276745,-0.048482586
187,1435995492727,-1.8477252,9.116522,-1.0468647
188,1435995492748,-1.9991584,9.416395,-1.4808137
189,1435995492766,-0.5446809,8.891466,-1.7340006
190,1435995492788,-0.37828386,8.398261,-1.0019734
191,1435995492808,-0.99658644,8.875306,-1.1707647
192,1435995492830,-1.5921441,10.412383,-1.99437
193,1435995492847,-2.204461,12.06139,-1.01574
194,1435995492866,-2.5474305,15.879542,-0.35434186
195,1435995492886,-2.8042088,16.329054,-0.29987377
196,1435995492907,-3.0855274,13.397354,-0.5686229
197,1435995492931,-3.086126,11.381436,-0.3800795
198,1435995492946,-2.4540567,10.8595,-0.094570965
199,1435995492967,-1.6555905,10.869077,-0.55365914
200,1435995492989,-0.9900024,11.118074,-0.80924016
201,1435995493006,-0.88405895,11.019313,-0.7098808
202,1435995493026,-1.1994951,10.631453,-0.7428011
203,1435995493049,-0.91458505,8.728661,-1.2455834
204,1435995493067,0.021547815,7.6985555,-1.4718355
205,1435995493087,1.5143325,6.7360864,-1.3970166
206,1435995493112,2.5198972,5.3648076,-2.0111294
207,1435995493129,2.2900538,3.1435869,-1.8507179
208,1435995493147,2.4079683,0.96905315,-0.7858967
209,1435995493167,2.7790697,-0.57999533,0.12449849
210,1435995493187,2.3415294,-1.4173675,1.3275849
211,1435995493207,0.9115923,0.55485624,0.9660604
212,1435995493228,-4.602853,4.532822,3.70383
213,1435995493246,-12.388198,11.464635,4.537611
214,1435995493267,-4.7722425,19.608511,-5.0942626
215,1435995493287,4.2664676,19.608511,-0.095768064
216,1435995493306,-1.7130513,15.519814,7.137714
217,1435995493327,-3.7702692,12.670714,3.6715083
218,1435995493352,-3.8474822,12.445659,1.673547
219,1435995493366,-2.5893292,12.12304,1.8291701
220,1435995493387,-2.1523874,11.2449665,1.6903064
221,1435995493409,-1.3180081,9.364322,0.8062474
222,1435995493427,-1.4263457,6.917447,0.06823475
223,1435995493450,-2.1930888,4.979341,1.002572
224,1435995493479,-1.9087774,2.944868,1.3461399
225,1435995493516,-0.7882909,0.5710171,0.40761283
226,1435995493517,-1.1994951,-3.5248635,-1.6663644
227,1435995493527,-2.2343888,-4.270657,-2.011728
228,1435995493548,-2.3612814,-2.7180176,-0.878672
229,1435995493567,-2.9239187,-0.9283517,0.2717419
230,1435995493587,-4.9063177,1.7549498,-1.8668787
231,1435995493607,-6.5140243,5.940613,-6.129755
232,1435995493628,-9.532514,11.390414,-0.53211135
233,1435995493647,-14.556148,19.608511,1.5735891
234,1435995493667,5.498883,19.608511,-10.079589
235,1435995493688,0.46567222,19.608511,-2.6384103
236,1435995493708,-6.609792,19.608511,9.333197
237,1435995493728,-7.801506,19.608511,2.9694088
238,1435995493747,-4.6662993,13.8163395,-0.83378077
239,1435995493767,-2.1158757,10.141838,-2.3702598
240,1435995493787,-0.55725044,7.5704656,-1.9668367
241,1435995493807,0.7038953,5.445013,-0.55964464
242,1435995493827,1.9357121,3.762488,-0.44592008
243,1435995493847,3.934272,2.2619221,-1.0995371
244,1435995493867,5.993884,0.33279404,-1.5562311
245,1435995493887,4.3143516,-2.4277205,-0.6871359
246,1435995493907,2.8173769,-4.158728,1.5179238
247,1435995493927,1.903989,-3.7900212,2.3666685
248,1435995493948,1.5520413,0.38067806,0.05267244
249,1435995493967,-8.822035,9.512762,3.4476504
250,1435995493988,-13.667899,19.608511,10.489596
251,1435995494012,13.543401,19.608511,-15.719131
252,1435995494029,4.1102457,19.363705,-0.56682724
253,1435995494050,-1.9818004,13.90672,9.061455
254,1435995494068,-5.581483,12.721591,5.0637364
255,1435995494087,-4.0641575,12.287642,0.99060094
256,1435995494109,-2.0626047,12.876017,1.4790181
257,1435995494128,-2.2697031,12.256517,2.4516625
258,1435995494147,-1.3395559,10.832565,0.6326678
259,1435995494167,-1.7830818,8.492832,-0.074818805
260,1435995494188,-2.4552538,4.8422728,0.8948329
261,1435995494207,-1.5885528,1.9560628,0.427365
262,1435995494228,-1.1569979,-2.0254946,-1.0815806
263,1435995494248,-3.5170822,-6.153697,-0.4997896
264,1435995494267,-3.3129766,-6.9886746,-0.90979666
265,1435995494287,-2.461838,-2.7389667,-2.5240872
266,1435995494311,-3.7469256,1.5759833,-5.969343
267,1435995494329,-4.484938,6.0782795,-4.0240545
268,1435995494348,-8.173206,12.377424,3.3716345
269,1435995494369,-11.556811,19.608511,2.9251158
270,1435995494393,3.3303347,19.608511,-8.646061
271,1435995494408,-0.43155485,19.392435,-2.3714569
272,1435995494428,-4.710592,15.329475,7.2711906
273,1435995494448,-4.5537715,14.341269,1.7328035
274,1435995494468,-3.2369606,12.668919,-2.8179753
275,1435995494488,-1.4041992,10.758346,-3.306991
276,1435995494508,-0.25677812,8.823232,-2.918532
277,1435995494528,0.9307459,6.929418,-2.2212207
278,1435995494549,1.8471266,5.509058,-1.8579005
279,1435995494572,2.0111294,4.0043025,-0.80804306
280,1435995494597,2.2583308,1.7980455,-0.61171854
281,1435995494610,2.5887306,-0.9624691,-0.27952304
282,1435995494628,3.5087025,-2.597709,0.25438392
283,1435995494648,2.392406,-3.13401,0.6847417
284,1435995494668,1.1145009,0.031124622,0.504578
285,1435995494688,-3.0053217,4.6686935,-0.3537433
286,1435995494709,-7.5974007,10.818799,0.17477672
287,1435995494728,-12.225991,19.608511,12.495937
288,1435995494748,17.848774,19.608511,-12.394184
289,1435995494768,1.377863,18.228853,1.1300632
290,1435995494788,-2.5145104,12.922105,6.0728927
291,1435995494808,-2.432509,12.51569,2.9825768
292,1435995494828,-2.0362685,12.539033,-0.5482722
293,1435995494848,-2.1254525,11.300632,-0.24061728
294,1435995494868,-2.558803,9.67018,1.4030021
295,1435995494888,-1.7633295,5.507262,1.2252327
296,1435995494908,-0.5758055,2.3343468,-0.017956512
297,1435995494928,2.007538,-0.24959552,-0.427365
298,1435995494949,-1.2695254,-4.4274774,-0.64463884
299,1435995494969,-3.1268275,-6.6971807,-1.9644425
300,1435995494993,-3.5236664,-6.533178,-1.2216414
301,1435995495008,-1.1133038,-3.9995139,-1.4323312
302,1435995495031,-3.1316159,0.8098387,-4.9919105
303,1435995495051,-5.5383873,4.917092,-7.8595657
304,1435995495069,-8.0367365,9.68694,-1.3198037
305,1435995495090,-11.203667,19.608511,8.513183
306,1435995495112,6.9246297,19.608511,-8.987833
307,1435995495128,-1.0594343,16.21054,0.4381389
308,1435995495149,-1.9859903,15.299547,7.423821
309,1435995495170,-3.9935284,15.489288,3.5583823
310,1435995495192,-3.9965212,13.59727,-0.58897364
311,1435995495213,-1.1085154,11.732785,-2.6001031
312,1435995495228,0.5722142,9.384073,-2.5330653
313,1435995495248,2.098518,7.471705,-2.2122424
314,1435995495269,2.2337902,6.43322,-1.5771804
315,1435995495292,1.934515,4.8189297,-0.43155485
316,1435995495309,1.9500773,2.8856115,-0.11671733
317,1435995495329,3.9187095,-0.29747957,-0.7086837
318,1435995495349,4.308366,-1.4646529,-0.35254622
319,1435995495369,3.6062663,-2.345719,0.29029694
320,1435995495390,2.5821466,-2.110489,0.05327099
321,1435995495410,-0.83138657,1.7459716,-0.107140526
322,1435995495429,-3.9815574,5.3181205,1.0600328
323,1435995495449,-5.79337,14.331692,-0.45250413
324,1435995495469,-1.0642227,19.608511,6.8749504
325,1435995495490,16.27279,19.608511,-5.901707
326,1435995495510,-0.85473,17.316662,0.42556936
327,1435995495529,-3.7193923,13.320141,5.5748987
328,1435995495549,-1.5424645,12.467207,4.244321
329,1435995495569,-1.834557,11.549629,0.0077811554
330,1435995495595,-2.0272903,10.727819,-0.130484
331,1435995495609,-2.0841527,8.8645315,0.85891986
332,1435995495630,-1.4796166,6.2632318,1.8974048
333,1435995495649,-0.87807345,3.268684,1.5239093
334,1435995495671,-1.0564415,0.16460137,0.3764882
335,1435995495690,-2.079364,-2.8694508,-0.22984336
336,1435995495709,-3.2423477,-5.895722,-1.6885108
337,1435995495729,-3.3010056,-7.1071877,-1.8387469
338,1435995495749,-2.1775265,-2.5360582,-3.9797618
339,1435995495769,-3.615843,2.2894554,-7.2304893
340,1435995495790,-6.4858923,9.215282,-0.047285482
341,1435995495809,-10.356119,19.608511,11.996147
342,1435995495829,4.818331,19.608511,-1.3988123
343,1435995495849,2.8491,19.06024,-6.136339
344,1435995495871,-2.5689783,12.798803,3.5619736
345,1435995495889,-2.5450363,14.2042,5.5623293
346,1435995495912,-3.4368765,15.188217,1.8752584
347,1435995495930,-2.295441,13.661315,-0.22266077
348,1435995495949,-0.15562311,12.0159,-1.3694834
349,1435995495970,0.5243302,9.424775,-0.25318682
350,1435995495991,0.8038532,7.827244,-0.2717419
351,1435995496011,1.5316905,5.7179523,0.004189853
352,1435995496030,2.2218192,2.5791538,-0.207697
353,1435995496051,2.6515784,0.6398504,-0.7314286
354,1435995496070,2.5755625,-1.4143747,-0.84096336
355,1435995496090,2.7150247,-2.461838,-0.9151836
356,1435995496111,3.0059202,-2.8119898,-1.0899603
357,1435995496132,3.0184898,-1.9201498,-2.0709844
358,1435995496149,1.8950106,1.7687165,-2.8898015
359,1435995496171,-2.0727801,5.8149176,1.0528502
360,1435995496190,-5.2846017,14.314333,2.5360582
361,1435995496211,-2.8161798,19.608511,13.031041
362,1435995496230,18.752584,19.608511,-8.030152
363,1435995496249,-2.244564,15.646707,0.17118542
364,1435995496270,-1.0378864,13.397953,5.1523223
365,1435995496290,-1.0235212,12.807782,4.787206
366,1435995496310,-2.7114334,11.634624,0.7679402
367,1435995496347,-2.1691468,10.785878,-0.58418524
368,1435995496350,-1.927931,9.23264,0.3333926
369,1435995496370,-1.525705,6.923433,0.6314707
370,1435995496390,-0.8026561,4.0252514,0.47465047
371,1435995496410,-0.9020155,1.0851719,0.31304187
372,1435995496429,-1.6352397,-1.5167267,-0.037110128
373,1435995496449,-2.4139538,-4.0563765,-1.4790181
374,1435995496470,-2.710835,-6.302736,-1.7669208
375,1435995496489,-2.0416555,-2.2331917,-3.5422213
376,1435995496509,-3.152565,1.780089,-6.862979
377,1435995496530,-3.1064768,6.149507,-5.8783636
378,1435995496549,-7.836222,15.591042,0.93852705
379,1435995496570,-6.4721255,19.608511,6.6205664
380,1435995496591,11.629236,19.608511,-9.97185
381,1435995496610,-0.58119243,12.717401,-3.3147724
382,1435995496630,-2.835932,11.619659,7.9278
383,1435995496654,-2.801216,14.442423,5.300164
384,1435995496669,-4.6375685,13.451822,0.46746787
385,1435995496689,-1.9488802,12.237962,-2.718616
386,1435995496710,0.29448682,8.72507,-1.311424
387,1435995496729,1.0151415,6.631939,-0.36032736
388,1435995496750,1.5286977,4.9176903,-0.18435353
389,1435995496770,2.086547,3.1555579,-0.6853402
390,1435995496790,2.6078842,1.3916297,-1.2114661
391,1435995496810,3.1986535,-0.56922144,-1.033098
392,1435995496830,2.9634233,-1.7705121,-0.21188685
393,1435995496849,2.2296004,-2.528277,0.24361002
394,1435995496870,1.3617022,-2.3289597,-0.5590461
395,1435995496894,1.8363527,1.3611037,-2.7563248
396,1435995496912,-2.3852234,4.9877205,-0.08020575
397,1435995496931,-7.691373,18.459295,5.2498856
398,1435995496953,12.01171,19.608511,7.2364745
399,1435995496970,11.659762,19.606716,-6.711546
400,1435995496992,-1.8076223,15.008652,0.43514615
401,1435995497011,-2.3481133,12.791621,3.4979286
402,1435995497030,-1.9321208,12.685678,4.0563765
403,1435995497051,-3.4165258,12.276269,1.388637
404,1435995497070,-2.645593,11.822568,-0.43394905
405,1435995497090,-1.7004818,10.802638,0.6877344
406,1435995497111,-1.352724,8.03554,2.1308396
407,1435995497131,-0.5243302,4.677073,1.0402806
408,1435995497152,0.712275,1.6561891,0.31064767
409,1435995497170,-0.50278234,-2.5677812,0.10235212
410,1435995497191,-3.2465374,-5.727529,-1.4119805
411,1435995497211,-3.8444893,-7.3047094,-1.4766239
